#ZVView-data-copy:  30-Mar-2021 21:02:43
#=======================================
#
#name:   ENDF/B-VIII.0: HE-3(T,D`)HE-4-L0
#X.axis: Incident Energy
#Y.axis: Cross Section
#wdata:  2
#ldata:  254
#data...
#            X            Y
#          MeV        barns
         0.001            0 
         0.002   2.8141e-31 
         0.004   8.3636e-22 
         0.006   1.1911e-17 
         0.008   3.4018e-15 
          0.01   1.5693e-13 
         0.012   2.6071e-12 
         0.014   2.2862e-11 
     0.0149666  5.54462e-11 
     0.0154747  8.53351e-11 
     0.0156044  9.49331e-11 
     0.0157024  1.02801e-10 
     0.0157762  1.09108e-10 
     0.0158877  1.19268e-10 
         0.016   1.3033e-10 
     0.0161182  1.42938e-10 
     0.0162298  1.55811e-10 
     0.0163352  1.68882e-10 
     0.0164346  1.82083e-10 
     0.0165283  1.95351e-10 
     0.0166582  2.15142e-10 
     0.0167783  2.34975e-10 
     0.0168869  2.54265e-10 
     0.0169872  2.73288e-10 
     0.0171106  2.98402e-10 
     0.0172193  3.22172e-10 
     0.0173599  3.55334e-10 
     0.0174386  3.75187e-10 
     0.0175773  4.12505e-10 
     0.0177215  4.54686e-10 
     0.0178205  4.85774e-10 
       0.01794  5.25759e-10 
     0.0180594  5.68539e-10 
     0.0181749  6.12788e-10 
      0.018284  6.57239e-10 
     0.0184367  7.24217e-10 
      0.018575  7.89867e-10 
     0.0187027  8.55062e-10 
     0.0188552  9.38933e-10 
     0.0189947   1.02176e-9 
     0.0191175    1.0999e-9 
     0.0192763   1.20853e-9 
     0.0193653   1.27338e-9 
     0.0195221    1.3949e-9 
     0.0196851   1.53173e-9 
      0.019797   1.63225e-9 
     0.0199321   1.76117e-9 
     0.0200699    1.9015e-9 
     0.0202081   2.05186e-9 
     0.0203429   2.20826e-9 
     0.0204744   2.37052e-9 
     0.0206026   2.53847e-9 
     0.0207893   2.80133e-9 
     0.0209679   3.07438e-9 
     0.0211405   3.35969e-9 
     0.0213056   3.65339e-9 
     0.0214651   3.95766e-9 
     0.0216174   4.26835e-9 
     0.0217644   4.58778e-9 
     0.0219538   5.02905e-9 
     0.0221328   5.47907e-9 
     0.0223019   5.93541e-9 
     0.0224617   6.39575e-9 
     0.0226125   6.85788e-9 
      0.022824   7.55361e-9 
     0.0230156   8.23488e-9 
     0.0231928   8.91081e-9 
     0.0234113   9.80879e-9 
     0.0236043   1.06641e-8 
     0.0237744     1.147e-8 
     0.0239901   1.25655e-8 
     0.0241721   1.35578e-8 
     0.0243765   1.47497e-8 
     0.0245974   1.61365e-8 
     0.0247979    1.7489e-8 
         0.025    1.8948e-8 
     0.0252123   2.05886e-8 
     0.0254176   2.22863e-8 
     0.0255496   2.34394e-8 
     0.0258073   2.58353e-8 
     0.0260512   2.82897e-8 
      0.026282   3.07888e-8 
     0.0265003   3.33195e-8 
     0.0267065   3.58688e-8 
     0.0269931   3.96809e-8 
     0.0272588   4.35114e-8 
     0.0274997   4.72452e-8 
     0.0277225   5.09345e-8 
     0.0279975   5.58143e-8 
     0.0282403   6.04413e-8 
     0.0284545   6.47833e-8 
     0.0287317   7.07855e-8 
     0.0290437   7.80828e-8 
     0.0293689   8.63439e-8 
     0.0295928   9.24393e-8 
     0.0298636   1.00286e-7 
     0.0301449   1.09003e-7 
     0.0304275   1.18382e-7 
     0.0306949   1.27856e-7 
     0.0309478   1.37378e-7 
      0.031303   1.51733e-7 
     0.0316254   1.65809e-7 
     0.0319242   1.79791e-7 
     0.0322934   1.98386e-7 
     0.0326199   2.16115e-7 
     0.0329083   2.32832e-7 
     0.0332747   2.55574e-7 
     0.0335845   2.76185e-7 
     0.0339329   3.00957e-7 
     0.0343103   3.29789e-7 
     0.0346534   3.57918e-7 
         0.035    3.8827e-7 
     0.0354317   4.28909e-7 
     0.0358324   4.69648e-7 
     0.0361962    5.0927e-7 
     0.0365332   5.48338e-7 
     0.0369495   5.99894e-7 
     0.0373177   6.48662e-7 
     0.0377956   7.16644e-7 
     0.0380644   7.57305e-7 
     0.0385393    8.3365e-7 
     0.0390353   9.19804e-7 
     0.0393772   9.83196e-7 
     0.0397913    1.0646e-6 
     0.0402955   1.17077e-6 
      0.040838   1.29411e-6 
     0.0413364   1.41629e-6 
     0.0417775   1.53185e-6 
     0.0423505    1.6929e-6 
      0.042673    1.7892e-6 
     0.0432432   1.96998e-6 
     0.0438392    2.1739e-6 
     0.0442503   2.32389e-6 
     0.0447487   2.51643e-6 
     0.0452973   2.74235e-6 
     0.0458601   2.99002e-6 
     0.0463582   3.22341e-6 
     0.0470054   3.54741e-6 
     0.0476908    3.9173e-6 
     0.0482579   4.24523e-6 
      0.048873   4.62432e-6 
     0.0494333   4.99171e-6 
          0.05    5.3856e-6 
      0.050573   5.80678e-6 
     0.0513728   6.43596e-6 
     0.0521177    7.0673e-6 
     0.0527959   7.68179e-6 
      0.053426   8.28799e-6 
     0.0542066   9.08823e-6 
      0.054899   9.84535e-6 
     0.0558006   1.09007e-5 
      0.056309   1.15319e-5 
     0.0572099   1.27166e-5 
     0.0581541   1.40527e-5 
     0.0592018   1.56539e-5 
     0.0602897   1.74533e-5 
     0.0611305   1.89414e-5 
     0.0621746   2.09158e-5 
     0.0631028   2.27931e-5 
       0.06429   2.53688e-5 
     0.0653008   2.77221e-5 
     0.0664452   3.05714e-5 
     0.0676463   3.37815e-5 
     0.0689814    3.7624e-5 
          0.07    4.0757e-5 
     0.0711782   4.45937e-5 
     0.0722254   4.82108e-5 
     0.0735645   5.31292e-5 
     0.0747043   5.75825e-5 
     0.0759944   6.29281e-5 
     0.0774014   6.91382e-5 
       0.07869   7.51835e-5 
          0.08     8.169e-5 
     0.0817112   9.07182e-5 
     0.0831715   9.89359e-5 
     0.0848284  0.000108849 
     0.0860928  0.000116843 
     0.0880247  0.000129795 
          0.09   0.00014398 
     0.0911931  0.000152985 
     0.0933193  0.000169922 
     0.0955639  0.000189063 
     0.0980741  0.000212039 
           0.1   0.00023081 
      0.102305  0.000254445 
      0.104366  0.000276793 
      0.107017   0.00030726 
      0.109287  0.000334907 
      0.111872  0.000368147 
       0.11471  0.000406812 
      0.117325  0.000444479 
      0.121162  0.000503093 
      0.124415  0.000555678 
       0.12814  0.000619522 
      0.131008  0.000671281 
      0.135429  0.000755546 
          0.14   0.00084827 
      0.144752  0.000949419 
      0.148422   0.00103148 
      0.154103   0.00116513 
      0.164781   0.00143211 
      0.168461   0.00152919 
      0.174135   0.00168727 
          0.18    0.0018617 
      0.184804   0.00199989 
      0.192252   0.00222664 
      0.202397   0.00255413 
      0.212276   0.00287764 
          0.22    0.0031469 
      0.229783   0.00348029 
          0.24     0.003849 
        0.2498   0.00419491 
      0.264862   0.00474493 
           0.3    0.0060374 
      0.324037   0.00687653 
          0.35    0.0078323 
      0.386867   0.00907172 
           0.4     0.009527 
          0.45     0.011095 
           0.5     0.012532 
          0.55     0.013842 
           0.6     0.015034 
           0.7     0.017106 
           0.8     0.018819 
           0.9      0.02023 
             1     0.021385 
           1.1     0.022314 
           1.2     0.023047 
           1.3     0.023606 
           1.4     0.024014 
           1.5     0.024289 
           1.6      0.02445 
           1.7     0.024515 
       1.84932     0.024461 
             2     0.024289 
       2.24944    0.0238022 
       2.86633    0.0223357 
             3     0.022052 
           3.5     0.021283 
             4      0.02174 
             5     0.022958 
             6     0.024251 
             9     0.028262 
       10.4881    0.0301246 
       11.4891    0.0312559 
         12.49    0.0322532 
            13     0.032717 
            14     0.033457 
            15     0.033983 
            16     0.034263 
            17     0.034265 
            18     0.033956 
            19     0.033305 
            20      0.03228 
//
#-------------------------------------------------------------------------------
