#ZVView-data-copy:  30-Mar-2021 14:35:22
#=======================================
#
#name:   ENDF/B-VII.1: HE-3(T,N+P)HE-4
#X.axis: Incident Energy
#Y.axis: Cross Section
#wdata:  2
#ldata:  259
#data...
#            X            Y
#          MeV        barns
         0.001            0 
         0.002   2.7129e-31 
         0.004   8.0819e-22 
         0.006   1.1537e-17 
         0.008   3.3025e-15 
          0.01    1.527e-13 
         0.012   2.5427e-12 
         0.014   2.2349e-11 
     0.0149666  5.42656e-11 
     0.0154747   8.3566e-11 
     0.0156044  9.29783e-11 
     0.0157024  1.00695e-10 
     0.0157762  1.06881e-10 
     0.0158877  1.16848e-10 
         0.016    1.277e-10 
     0.0161182  1.40074e-10 
     0.0162298  1.52711e-10 
     0.0163352  1.65544e-10 
     0.0164346  1.78506e-10 
     0.0165283  1.91535e-10 
     0.0166582  2.10972e-10 
     0.0167783  2.30454e-10 
     0.0168869  2.49405e-10 
     0.0169872  2.68097e-10 
     0.0171106  2.92775e-10 
     0.0172193  3.16136e-10 
     0.0173599  3.48734e-10 
     0.0174386  3.68251e-10 
     0.0175773  4.04941e-10 
     0.0177215   4.4642e-10 
     0.0178205  4.76994e-10 
       0.01794  5.16323e-10 
     0.0180594  5.58413e-10 
     0.0181749  6.01959e-10 
      0.018284   6.4571e-10 
     0.0184367  7.11644e-10 
      0.018575  7.76281e-10 
     0.0187027  8.40481e-10 
     0.0188552  9.23085e-10 
     0.0189947   1.00467e-9 
     0.0191175   1.08165e-9 
     0.0192763    1.1887e-9 
     0.0193653   1.25261e-9 
     0.0195221   1.37238e-9 
     0.0196851   1.50728e-9 
      0.019797   1.60639e-9 
     0.0199321   1.73351e-9 
     0.0200699   1.87195e-9 
     0.0202081   2.02035e-9 
     0.0203429   2.17474e-9 
     0.0204744   2.33495e-9 
     0.0206026    2.5008e-9 
     0.0207893   2.76043e-9 
     0.0209679   3.03019e-9 
     0.0211405   3.31212e-9 
     0.0213056   3.60241e-9 
     0.0214651    3.9032e-9 
     0.0216174    4.2104e-9 
     0.0217644    4.5263e-9 
     0.0219538   4.96279e-9 
     0.0221328   5.40802e-9 
     0.0223019    5.8596e-9 
     0.0224617   6.31524e-9 
     0.0226125   6.77272e-9 
      0.022824    7.4616e-9 
     0.0230156   8.13631e-9 
     0.0231928   8.80587e-9 
     0.0234113   9.69559e-9 
     0.0236043   1.05433e-8 
     0.0237744    1.1342e-8 
     0.0239901   1.24282e-8 
     0.0241721   1.34121e-8 
     0.0243765   1.45943e-8 
     0.0245974     1.597e-8 
     0.0247979    1.7312e-8 
         0.025     1.876e-8 
     0.0252123     2.039e-8 
     0.0254176   2.20772e-8 
     0.0256137   2.37985e-8 
     0.0258032   2.55667e-8 
     0.0260474   2.80069e-8 
     0.0262784   3.04926e-8 
     0.0264968   3.30106e-8 
     0.0267033   3.55481e-8 
     0.0268983   3.80928e-8 
     0.0271719   4.19194e-8 
       0.02742   4.56614e-8 
     0.0276496   4.93693e-8 
     0.0279331   5.42887e-8 
     0.0281834   5.89677e-8 
     0.0284043   6.33703e-8 
     0.0286847    6.9347e-8 
     0.0289214   7.47522e-8 
     0.0291874   8.12363e-8 
      0.029475   8.87674e-8 
     0.0297364    9.6101e-8 
          0.03      1.04e-7 
     0.0302904   1.13316e-7 
     0.0305653   1.22756e-7 
     0.0308252    1.3227e-7 
     0.0311867   1.46505e-7 
     0.0315221   1.60816e-7 
     0.0318264   1.74772e-7 
     0.0321082   1.88568e-7 
     0.0324562    2.0682e-7 
     0.0327638   2.24133e-7 
     0.0331548   2.47833e-7 
     0.0334857   2.69447e-7 
      0.033858   2.95581e-7 
     0.0342463   3.24995e-7 
      0.034675   3.60183e-7 
         0.035    3.8887e-7 
     0.0354317   4.29806e-7 
     0.0358324   4.70862e-7 
     0.0361962   5.10813e-7 
     0.0365332   5.50222e-7 
     0.0369495   6.02251e-7 
     0.0373177   6.51489e-7 
     0.0377956    7.2016e-7 
     0.0380644   7.61251e-7 
     0.0385393   8.38436e-7 
     0.0390353   9.25584e-7 
     0.0393772   9.89738e-7 
     0.0397913   1.07215e-6 
     0.0402955   1.17977e-6 
     0.0405746   1.24291e-6 
      0.041103   1.36979e-6 
     0.0415711   1.49053e-6 
      0.041985   1.60416e-6 
     0.0425114   1.75844e-6 
     0.0429571   1.89797e-6 
      0.043459   2.06532e-6 
     0.0440032   2.25964e-6 
     0.0444988   2.44878e-6 
         0.045    2.6524e-6 
     0.0455966   2.91175e-6 
     0.0461251   3.15759e-6 
     0.0467985   3.49386e-6 
     0.0473697   3.80023e-6 
      0.048014   4.17029e-6 
     0.0486876   4.58624e-6 
     0.0494333   5.08308e-6 
          0.05    5.4875e-6 
      0.050573   5.92105e-6 
     0.0513728   6.56928e-6 
     0.0521177   7.22038e-6 
     0.0527959   7.85467e-6 
      0.053426   8.48088e-6 
     0.0542066   9.30826e-6 
      0.054899   1.00917e-5 
     0.0558006   1.11849e-5 
      0.056309   1.18391e-5 
     0.0572099   1.30681e-5 
     0.0581541   1.44555e-5 
     0.0588067   1.54765e-5 
     0.0595996   1.67875e-5 
     0.0605809   1.85218e-5 
     0.0616504   2.05584e-5 
      0.062637   2.25786e-5 
     0.0635132   2.44909e-5 
     0.0646557   2.71581e-5 
     0.0653008   2.87538e-5 
     0.0664452   3.17498e-5 
     0.0676463   3.51295e-5 
     0.0689814   3.91808e-5 
          0.07    4.2488e-5 
     0.0711782   4.65559e-5 
     0.0722254   5.03965e-5 
     0.0735645   5.56262e-5 
     0.0747043   6.03684e-5 
     0.0759944    6.6069e-5 
     0.0774014   7.27015e-5 
       0.07869   7.91678e-5 
          0.08    8.6137e-5 
     0.0817112   9.58577e-5 
     0.0831715  0.000104723 
     0.0848284  0.000115437 
     0.0860928  0.000124092 
     0.0880247  0.000138141 
          0.09   0.00015356 
     0.0911931  0.000163402 
     0.0933193  0.000181952 
     0.0955639  0.000202971 
     0.0971252   0.00021848 
     0.0990324  0.000238436 
      0.101146  0.000261863 
       0.10333  0.000287548 
       0.10528  0.000311769 
      0.107837  0.000345396 
      0.110757  0.000386444 
      0.113851  0.000433053 
       0.11601  0.000467495 
      0.118655  0.000511859 
      0.122335  0.000577531 
      0.124415  0.000616706 
       0.12814  0.000690614 
      0.132099  0.000774424 
      0.136558  0.000875307 
          0.14   0.00095789 
      0.144752    0.0010784 
      0.149823   0.00121538 
      0.155556   0.00138058 
      0.162373   0.00158825 
      0.166611   0.00172308 
      0.171274   0.00188026 
      0.177043   0.00208792 
          0.18    0.0022002 
      0.186639   0.00244668 
      0.191305   0.00263038 
      0.197059   0.00286912 
      0.208516   0.00335853 
      0.216103   0.00370347 
      0.229783   0.00434837 
      0.244851   0.00510309 
      0.254849   0.00562174 
       0.27486   0.00670087 
       0.29487   0.00782326 
           0.3    0.0081221 
      0.311787   0.00877444 
      0.330341   0.00985249 
          0.35     0.011063 
      0.374166    0.0124785 
           0.4     0.014075 
      0.436943    0.0162712 
          0.45     0.017077 
      0.487002    0.0192384 
           0.5     0.020018 
          0.55     0.022865 
           0.6     0.025597 
           0.7     0.030666 
           0.8     0.035178 
           0.9     0.039131 
             1     0.042544 
           1.1      0.04545 
           1.2      0.04789 
           1.3     0.049907 
           1.4     0.051544 
           1.5     0.052848 
           1.6     0.053861 
           1.7     0.054623 
           1.8     0.055175 
       1.94936    0.0556634 
       2.14942       0.0559 
           2.2      0.05591 
           2.5     0.055629 
             3     0.054987 
           3.5     0.055309 
             4     0.055981 
           4.5     0.054486 
       5.47723    0.0523599 
       6.48074    0.0504905 
       7.48331    0.0488803 
       8.48528    0.0475058 
       9.48683    0.0463435 
       10.4881    0.0453698 
            12     0.044197 
       13.4907    0.0433453 
       15.4919    0.0425061 
            20     0.041028 
//
#-------------------------------------------------------------------------------
