#ZVView-data-copy:  30-Mar-2021 13:58:33
#=======================================
#
#name:   ENDF/B-VIII.0: H-3(T,2N)HE-4
#X.axis: Incident Energy
#Y.axis: Cross Section
#wdata:  2
#ldata:  298
#data...
#            X            Y
#          MeV        barns
        0.0001            0 
        0.0005   3.0969e-31 
         0.001   9.2179e-22 
         0.002   3.7603e-15 
    0.00282843  1.20049e-12 
    0.00336359  1.47423e-11 
    0.00366802   4.7469e-11 
    0.00383041   8.3483e-11 
    0.00387212  9.59414e-11 
    0.00388788  1.01057e-10 
    0.00391561  1.10645e-10 
    0.00394442  1.21443e-10 
    0.00396418  1.29375e-10 
    0.00398802   1.3955e-10 
    0.00401269  1.50807e-10 
    0.00403799  1.63174e-10 
    0.00406306  1.76292e-10 
    0.00408788  1.90186e-10 
    0.00411246  2.04883e-10 
    0.00413681  2.20407e-10 
    0.00416091  2.36783e-10 
    0.00418478  2.54035e-10 
     0.0042084  2.72187e-10 
    0.00423179  2.91262e-10 
    0.00426647  3.21695e-10 
    0.00430052  3.54246e-10 
    0.00433413  3.89154e-10 
    0.00436712    4.263e-10 
    0.00439967  4.65938e-10 
    0.00443161  5.07917e-10 
    0.00446311  5.52506e-10 
    0.00449401  5.99514e-10 
    0.00452447  6.49227e-10 
    0.00455435  7.01416e-10 
    0.00458379  7.56382e-10 
    0.00461266  8.13856e-10 
     0.0046411  8.74156e-10 
    0.00467849  9.59312e-10 
    0.00471501    1.0493e-9 
    0.00475065   1.14412e-9 
    0.00478544   1.24371e-9 
    0.00481938   1.34802e-9 
     0.0048525   1.45698e-9 
    0.00488479    1.5705e-9 
    0.00491628   1.68846e-9 
    0.00494698   1.81073e-9 
     0.0049917   2.00246e-9 
    0.00503448   2.20203e-9 
    0.00507584   2.41097e-9 
    0.00511537   2.62645e-9 
    0.00515356   2.85009e-9 
    0.00519004   3.07884e-9 
    0.00522525   3.31439e-9 
     0.0052706   3.64039e-9 
    0.00531347   3.97348e-9 
    0.00535398   4.31186e-9 
    0.00539224    4.6538e-9 
    0.00542835    4.9976e-9 
    0.00547847    5.5106e-9 
    0.00552487   6.02491e-9 
    0.00556687   6.52525e-9 
    0.00560569   7.01878e-9 
    0.00565352   7.67041e-9 
    0.00569571   8.28722e-9 
    0.00575032   9.14778e-9 
    0.00578095   9.66296e-9 
    0.00583495   1.06312e-8 
    0.00589117   1.17255e-8 
    0.00592981   1.25318e-8 
    0.00597651   1.35687e-8 
    0.00602703    1.4771e-8 
     0.0060806   1.61432e-8 
    0.00613296   1.75867e-8 
     0.0061841   1.91008e-8 
    0.00623406   2.06843e-8 
    0.00628284   2.23358e-8 
    0.00633046   2.40539e-8 
    0.00637693   2.58367e-8 
    0.00642228    2.7682e-8 
     0.0064884   3.05701e-8 
    0.00655174     3.357e-8 
    0.00661303   3.67043e-8 
     0.0066717   3.99301e-8 
    0.00672842   4.32713e-8 
    0.00678266   4.66822e-8 
    0.00683507   5.01879e-8 
    0.00690263   5.50291e-8 
    0.00696658   5.99638e-8 
    0.00702706   6.49655e-8 
    0.00708424   7.00084e-8 
    0.00713828   7.50683e-8 
    0.00721413   8.26807e-8 
    0.00728293   9.01291e-8 
    0.00734663   9.75134e-8 
    0.00742529   1.07315e-7 
    0.00749481   1.16642e-7 
    0.00755617   1.25421e-7 
    0.00763407   1.37344e-7 
    0.00769988   1.48131e-7 
    0.00777384   1.61076e-7 
    0.00785387   1.76116e-7 
     0.0079266   1.90766e-7 
         0.008    2.0655e-7 
    0.00808324   2.25722e-7 
    0.00816384    2.4565e-7 
    0.00824103   2.66059e-7 
     0.0083157   2.87099e-7 
    0.00841211   3.16249e-7 
    0.00850352   3.46064e-7 
    0.00859011   3.76378e-7 
    0.00867209   4.07029e-7 
    0.00874966   4.37862e-7 
     0.0088576   4.83888e-7 
    0.00895781   5.30043e-7 
    0.00904877    5.7495e-7 
    0.00913305   6.19242e-7 
    0.00923717   6.77712e-7 
    0.00932924   7.33039e-7 
    0.00944875   8.10191e-7 
    0.00951596   8.56352e-7 
    0.00963473    9.4305e-7 
    0.00975876   1.04093e-6 
    0.00984424   1.11297e-6 
    0.00994781   1.20551e-6 
     0.0100571    1.3097e-6 
     0.0101688   1.42333e-6 
     0.0102746   1.53806e-6 
     0.0103747   1.65333e-6 
     0.0105157   1.82698e-6 
     0.0106439   1.99711e-6 
      0.010763   2.16596e-6 
     0.0109103   2.39028e-6 
     0.0110409   2.60392e-6 
     0.0111565   2.80513e-6 
     0.0113036    3.0785e-6 
     0.0114282   3.32591e-6 
     0.0115685   3.62285e-6 
     0.0117208   3.96786e-6 
     0.0118596   4.30388e-6 
         0.012    4.6658e-6 
      0.012171   5.13757e-6 
     0.0123301   5.60844e-6 
     0.0124283   5.91546e-6 
     0.0126147   6.53287e-6 
     0.0127801   7.12079e-6 
     0.0129266   7.67441e-6 
     0.0131132   8.42641e-6 
     0.0132715   9.10676e-6 
       0.01345   9.92301e-6 
     0.0136439    1.0871e-5 
     0.0138208   1.17937e-5 
         0.014    1.2787e-5 
     0.0142282   1.41405e-5 
     0.0144385   1.54794e-5 
      0.014625    1.6744e-5 
     0.0148679   1.85036e-5 
     0.0151259   2.05173e-5 
     0.0153398   2.23063e-5 
     0.0155724    2.4378e-5 
     0.0157848    2.6389e-5 
         0.016    2.8548e-5 
     0.0162373   3.10727e-5 
     0.0165408    3.4532e-5 
     0.0167992   3.76884e-5 
     0.0170917   4.15054e-5 
     0.0173986      4.58e-5 
     0.0177398   5.09336e-5 
         0.018    5.5114e-5 
      0.018344   6.10011e-5 
      0.018637   6.63511e-5 
     0.0189688   7.27954e-5 
     0.0193308   8.03099e-5 
     0.0196626   8.76512e-5 
          0.02    9.5579e-5 
     0.0204345  0.000106461 
     0.0208679  0.000118125 
     0.0212966   0.00013048 
     0.0217202  0.000143514 
     0.0221387  0.000157212 
     0.0225518  0.000171556 
     0.0229593  0.000186526 
      0.023361  0.000202097 
     0.0239543  0.000226594 
     0.0245308   0.00025216 
     0.0250965  0.000278966 
     0.0256451   0.00030662 
     0.0261822  0.000335305 
     0.0268849  0.000375281 
     0.0275609  0.000416383 
     0.0282101  0.000458334 
     0.0288325  0.000500865 
     0.0297121  0.000564853 
     0.0305428  0.000629489 
     0.0313086  0.000692713 
     0.0320281   0.00075531 
     0.0329304  0.000838187 
     0.0337408  0.000916761 
       0.03481   0.00102642 
     0.0359625   0.00115217 
      0.036932   0.00126397 
     0.0379997   0.00139338 
     0.0393218    0.0015626 
          0.04    0.0016532 
     0.0415169   0.00183791 
     0.0429592   0.00202548 
     0.0442971   0.00221019 
     0.0455614   0.00239445 
     0.0471565   0.00264077 
     0.0485979     0.002877 
     0.0505125   0.00321138 
     0.0516111   0.00341414 
     0.0535914   0.00380025 
     0.0557132   0.00424422 
     0.0572078    0.0045763 
     0.0590545   0.00500928 
          0.06    0.0052409 
     0.0631831   0.00587377 
     0.0659767   0.00646183 
     0.0692334   0.00718626 
     0.0717809   0.00778241 
     0.0757791   0.00877061 
          0.08    0.0098843 
     0.0863779    0.0113474 
     0.0910157    0.0124673 
     0.0969108    0.0139581 
           0.1     0.014769 
      0.109545    0.0169569 
          0.12     0.019469 
      0.134707    0.0226387 
          0.14     0.023806 
          0.16      0.02773 
          0.18     0.031253 
           0.2     0.034408 
          0.22     0.037241 
          0.24     0.039793 
          0.26     0.042105 
          0.28     0.044212 
           0.3     0.046145 
          0.35     0.050377 
           0.4     0.053985 
          0.45      0.05718 
      0.524404    0.0614636 
      0.648074    0.0680301 
           0.8     0.075838 
           0.9     0.081176 
             1     0.086742 
       1.14891    0.0955366 
       1.34907     0.107944 
       1.54919     0.120348 
       1.64924      0.12611 
           1.7       0.1289 
           1.8       0.1337 
           1.9      0.13752 
             2      0.14013 
           2.1      0.14135 
           2.2      0.14106 
           2.3      0.13928 
           2.4      0.13608 
           2.5      0.13165 
       2.60914     0.123334 
        2.7018     0.116934 
       2.80474     0.110445 
       2.93345     0.103131 
             3     0.099658 
       3.08426     0.093281 
        3.1566    0.0882586 
       3.23915     0.082983 
          3.33      0.07768 
       3.41394    0.0731977 
           3.5     0.068974 
       3.61881    0.0645991 
       3.74556    0.0603779 
        3.8889    0.0560869 
             4      0.05307 
       4.16364    0.0497395 
       4.30574    0.0471133 
        4.4697    0.0443515 
       4.65231    0.0415718 
       4.82302    0.0392193 
             5        0.037 
       5.31163    0.0346623 
       5.58732    0.0328196 
       5.91122    0.0308826 
       6.26492    0.0290048 
       6.51814    0.0277903 
       6.83555    0.0263999 
             7     0.025731 
       7.46332     0.024415 
       7.87459    0.0233655 
       8.35932    0.0222497 
       8.91183    0.0211133 
       9.44025    0.0201402 
            10     0.019212 
        11.941    0.0185988 
       13.9019    0.0180887 
            15     0.017839 
       18.6121    0.0173447 
            20     0.017183 
//
#-------------------------------------------------------------------------------
